time,voltage
0,1060
5.365,1040
11.883,1020
18.901,1000
26.755,980
34.604,960
42.594,940
50.525,920
59.683,900
77.438,860
86.821,840
95.812,820
105.483,800
115.615,780
120.221,770
125.435,760
130.366,750
135.818,740
140.841,730
145.94,720
151.731,710
156.846,700
162.328,690
167.509,680
173.037,670
178.666,660
184.268,650
190.21,640
196.25,630
201.964,620
207.57,610
213.721,600
219.685,590
225.835,580
231.961,570
238.298,560
244.769,550
251.183,540
257.767,530
264.275,520
270.931,510
277.294,500
284.206,490
290.733,480